Time       S(t)           I(t)           R(t)
0.0000 1.00000000000000 0.10000000000000 0.00000000000000 
0.1000 0.99900000000000 0.09900000000000 0.00198000000000 
0.2000 0.99801099000000 0.09800901000000 0.00394018020000 
0.3000 0.99703284930901 0.09702697049099 0.00588071960982 
0.4000 0.99606545854053 0.09605382184965 0.00780179604681 
0.5000 0.99510869959947 0.09508950435371 0.00970358613389 
0.6000 0.99416245566924 0.09413395819687 0.01158626529782 
0.7000 0.99322661119881 0.09318712350336 0.01345000776789 
0.8000 0.99230105188997 0.09224894034214 0.01529498657473 
0.9000 0.99138566468460 0.09131934874067 0.01712137354955 
1.0000 0.99048033775210 0.09039828869835 0.01892933932352 
1.1000 0.98958496047688 0.08948570019961 0.02071905332751 
1.2000 0.98869942344592 0.08858152322657 0.02249068379204
1.3000 0.98782361843650 0.08768569777146 0.02424439774747
1.4000 0.98695743840393 0.08679816384861 0.02598036102444
1.5000 0.98610077746942 0.08591886150614 0.02769873825456
1.6000 0.98525353090812 0.08504773083732 0.02939969287131
1.7000 0.98441559513709 0.08418471199160 0.03108338711114
1.8000 0.98358686770352 0.08332974518534 0.03274998201485
1.9000 0.98276724727299 0.08248277071217 0.03439963742909
2.0000 0.98195663361778 0.08164372895313 0.03603251200815
2.1000 0.98115492760540 0.08081256038645 0.03764876321588
2.2000 0.98036203118704 0.07998920559708 0.03924854732782
2.3000 0.97957784738632 0.07917360528586 0.04083201943354
2.4000 0.97880228028796 0.07836570027850 0.04239933343911
2.5000 0.97803523502667 0.07756543153422 0.04395064206980
2.6000 0.97727661777607 0.07677274015414 0.04548609687288
2.7000 0.97652633573771 0.07598756738941 0.04700584822067
2.8000 0.97578429713027 0.07520985464906 0.04851004531365
2.9000 0.97505041117871 0.07443954350764 0.04999883618380
3.0000 0.97432458810366 0.07367657571254 0.05147236769805
3.1000 0.97360673911082 0.07292089319113 0.05293078556187
3.2000 0.97289677638049 0.07217243805764 0.05437423432303
3.3000 0.97219461305719 0.07143115261978 0.05580285737542
3.4000 0.97150016323938 0.07069697938520 0.05721679696313
3.5000 0.97081334196924 0.06996986106763 0.05861619418448
3.6000 0.97013406522264 0.06924974059288 0.06000118899634
3.7000 0.96946224989907 0.06853656110459 0.06137192021843
3.8000 0.96879781381179 0.06783026596979 0.06272852553782
3.9000 0.96814067567797 0.06713079878421 0.06407114151351
4.0000 0.96749075510903 0.06643810337746 0.06539990358106
4.1000 0.96684797260098 0.06575212381796 0.06671494605742
4.2000 0.96621224952491 0.06507280441768 0.06801640214577
4.3000 0.96558350811751 0.06440008973672 0.06930440394050
4.4000 0.96496167147180 0.06373392458769 0.07057908243226
4.5000 0.96434666352781 0.06307425403993 0.07184056751306
4.6000 0.96373840906343 0.06242102342351 0.07308898798153
4.7000 0.96313683368537 0.06177417833311 0.07432447154819
4.8000 0.96254186382013 0.06113366463168 0.07554714484082
4.9000 0.96195342670517 0.06049942845401 0.07675713340990
5.0000 0.96137145038001 0.05987141621008 0.07795456173410
5.1000 0.96079586367763 0.05924957458826 0.07913955322587
5.2000 0.96022659621574 0.05863385055839 0.08031223023704
5.3000 0.95966357838830 0.05802419137467 0.08147271406453
5.4000 0.95910674135702 0.05742054457845 0.08262112495610
5.5000 0.95855601704304 0.05682285800086 0.08375758211612
5.6000 0.95801133811862 0.05623107976526 0.08488220371142
5.7000 0.95747263799892 0.05564515828966 0.08599510687722
5.8000 0.95693985083393 0.05506504228886 0.08709640772299
5.9000 0.95641291150039 0.05449068077662 0.08818622133853
6.0000 0.95589175559387 0.05392202306760 0.08926466179988
6.1000 0.95537631942092 0.05335901877920 0.09033184217546
6.2000 0.95486653999123 0.05280161783331 0.09138787453213
6.3000 0.95436235500997 0.05224977045791 0.09243286994129
6.4000 0.95386370287014 0.05170342718858 0.09346693848506
6.5000 0.95337052264504 0.05116253886990 0.09449018926246
6.6000 0.95288275408082 0.05062705665672 0.09550273039559
6.7000 0.95240033758904 0.05009693201537 0.09650466903590
6.8000 0.95192321423941 0.04957211672470 0.09749611137039
6.9000 0.95145132575251 0.04905256287710 0.09847716262793
7.0000 0.95098461449270 0.04853822287936 0.09944792708552
7.1000 0.95052302346097 0.04802904945351 0.10040850807459
7.2000 0.95006649628797 0.04752499563744 0.10135900798734
7.3000 0.94961497722705 0.04702601478561 0.10229952828305
7.4000 0.94916841114746 0.04653206056949 0.10323016949444
7.5000 0.94872674352748 0.04604308697808 0.10415103123400
7.6000 0.94828992044777 0.04555904831823 0.10506221220037
7.7000 0.94785788858471 0.04507989921492 0.10596381018467
7.8000 0.94743059520384 0.04460559461149 0.10685592207690
7.9000 0.94700798815332 0.04413608976979 0.10773864387229
8.0000 0.94659001585754 0.04367134027017 0.10861207067769
8.1000 0.94617662731075 0.04321130201155 0.10947629671793
8.2000 0.94576777207076 0.04275593121131 0.11033141534215
8.3000 0.94536340025272 0.04230518440513 0.11117751903025
8.4000 0.94496346252294 0.04185901844680 0.11201469939919
8.5000 0.94456791009285 0.04141739050796 0.11284304720935
8.6000 0.94417669471291 0.04098025807774 0.11366265237090
8.7000 0.94378976866671 0.04054757896239 0.11447360395015
8.8000 0.94340708476502 0.04011931128483 0.11527599017585
8.9000 0.94302859634000 0.03969541348415 0.11606989844553
9.0000 0.94265425723941 0.03927584431506 0.11685541533183
9.1000 0.94228402182091 0.03886056284726 0.11763262658878
9.2000 0.94191784494641 0.03844952846482 0.11840161715807
9.3000 0.94155568197650 0.03804270086543 0.11916247117538
9.4000 0.94119748876492 0.03764004005969 0.11991527197658
9.5000 0.94084322165311 0.03724150637031 0.12066010210398
9.6000 0.94049283746478 0.03684706043123 0.12139704331261
9.7000 0.94014629350061 0.03645666318678 0.12212617657634
9.8000 0.93980354753293 0.03607027589073 0.12284758209416
9.9000 0.93946455780050 0.03568786010534 0.12356133929626
10.0000 0.93912928300337 0.03530937770036 0.12426752685027
10.1000 0.93879768229774 0.03493479085198 0.12496622266731
10.2000 0.93846971529091 0.03456406204178 0.12565750390815
10.3000 0.93814534203627 0.03419715405558 0.12634144698926
10.4000 0.93782452302839 0.03383402998235 0.12701812758891
10.5000 0.93750721919809 0.03347465321300 0.12768762065317
10.6000 0.93719339190762 0.03311898743922 0.12835000040195
10.7000 0.93688300294587 0.03276699665218 0.12900534033499
10.8000 0.93657601452366 0.03241864514135 0.12965371323782
10.9000 0.93627238926903 0.03207389749315 0.13029519118768
11.0000 0.93597209022264 0.03173271858968 0.13092984555948
11.1000 0.93567508083317 0.03139507360735 0.13155774703162
11.2000 0.93538132495282 0.03106092801556 0.13217896559194
11.3000 0.93509078683280 0.03073024757526 0.13279357054344
11.4000 0.93480343111896 0.03040299833760 0.13340163051019
11.5000 0.93451922284733 0.03007914664247 0.13400321344304
11.6000 0.93423812743989 0.02975865911707 0.13459838662538
11.7000 0.93396011070021 0.02944150267441 0.13518721667887
11.8000 0.93368513880924 0.02912764451189 0.13576976956911
11.9000 0.93341317832114 0.02881705210975 0.13634611061130
12.0000 0.93314419615915 0.02850969322955 0.13691630447590
12.1000 0.93287815961143 0.02820553591267 0.13748041519415
12.2000 0.93261503632710 0.02790454847875 0.13803850616372
12.3000 0.93235479431217 0.02760669952411 0.13859064015421
12.4000 0.93209740192561 0.02731195792019 0.13913687931261
12.5000 0.93184282787542 0.02702029281197 0.13967728516885
12.6000 0.93159104121478 0.02673167361637 0.14021191864118
12.7000 0.93134201133820 0.02644607002062 0.14074084004159
12.8000 0.93109570797775 0.02616345198066 0.14126410908120
12.9000 0.93085210119930 0.02588378971950 0.14178178487559
13.0000 0.93061116139883 0.02560705372558 0.14229392595010
13.1000 0.93037285929875 0.02533321475115 0.14280059024513
13.2000 0.93013716594432 0.02506224381056 0.14330183512134
13.3000 0.92990405270002 0.02479411217865 0.14379771736491
13.4000 0.92967349124604 0.02452879138905 0.14428829319269
13.5000 0.92944545357477 0.02426625323254 0.14477361825734
13.6000 0.92921991198735 0.02400646975531 0.14525374765245
13.7000 0.92899683909021 0.02374941325734 0.14572873591760
13.8000 0.92877620779175 0.02349505629065 0.14619863704341
13.9000 0.92855799129892 0.02324337165767 0.14666350447656
14.0000 0.92834216311394 0.02299433240950 0.14712339112475
14.1000 0.92812869703106 0.02274791184419 0.14757834936164
14.2000 0.92791756713326 0.02250408350511 0.14802843103174
14.3000 0.92770874778909 0.02226282117917 0.14847368745532
14.4000 0.92750221364951 0.02202409889517 0.14891416943323
14.5000 0.92729793964472 0.02178789092206 0.14934992725167
14.6000 0.92709590098110 0.02155417176723 0.14978101068701
14.7000 0.92689607313816 0.02132291617483 0.15020746901051
14.8000 0.92669843186546 0.02109409912404 0.15062935099299
14.9000 0.92650295317966 0.02086769582735 0.15104670490954
15.0000 0.92630961336156 0.02064368172891 0.15145957854411
15.1000 0.92611838895315 0.02042203250274 0.15186801919417
15.2000 0.92592925675475 0.02020272405109 0.15227207367519
15.3000 0.92574219382209 0.01998573250272 0.15267178832524
15.4000 0.92555717746357 0.01977103421118 0.15306720900947
15.5000 0.92537418523737 0.01955860575316 0.15345838112453
15.6000 0.92519319494874 0.01934842392673 0.15384534960307
15.7000 0.92501418464724 0.01914046574969 0.15422815891806
15.8000 0.92483713262405 0.01893470845789 0.15460685308722
15.9000 0.92466201740928 0.01873112950351 0.15498147567729
16.0000 0.92448881776933 0.01852970655339 0.15535206980836
16.1000 0.92431751270427 0.01833041748737 0.15571867815810
16.2000 0.92414808144529 0.01813324039661 0.15608134296603
16.3000 0.92398050345206 0.01793815358191 0.15644010603767
16.4000 0.92381475841028 0.01774513555205 0.15679500874871
16.5000 0.92365082622915 0.01755416502214 0.15714609204916
16.6000 0.92348868703889 0.01736522091196 0.15749339646740
16.7000 0.92332832118829 0.01717828234432 0.15783696211428
16.8000 0.92316970924231 0.01699332864341 0.15817682868715
16.9000 0.92301283197968 0.01681033933317 0.15851303547381
17.0000 0.92285767039053 0.01662929413565 0.15884562135653
17.1000 0.92270420567407 0.01645017296940 0.15917462481591
17.2000 0.92255241923624 0.01627295594784 0.15950008393487
17.3000 0.92240229268746 0.01609762337766 0.15982203640243
17.4000 0.92225380784036 0.01592415575721 0.16014051951757
17.5000 0.92210694670752 0.01575253377491 0.16045557019307
17.6000 0.92196169149930 0.01558273830763 0.16076722495922
17.7000 0.92181802462162 0.01541475041916 0.16107551996760
17.8000 0.92167592867380 0.01524855135859 0.16138049099478
17.9000 0.92153538644646 0.01508412255876 0.16168217344595
18.0000 0.92139638091935 0.01492144563470 0.16198060235864
18.1000 0.92125889525929 0.01476050238207 0.16227581240629
18.2000 0.92112291281811 0.01460127477561 0.16256783790180
18.3000 0.92098841713059 0.01444374496762 0.16285671280115
18.4000 0.92085539191243 0.01428789528641 0.16314247070688
18.5000 0.92072382105830 0.01413370823482 0.16342514487158
18.6000 0.92059368863978 0.01398116648864 0.16370476820135
18.7000 0.92046497890349 0.01383025289516 0.16398137325925
18.8000 0.92033767626910 0.01368095047165 0.16425499226868
18.9000 0.92021176532743 0.01353324240388 0.16452565711676
19.0000 0.92008723083860 0.01338711204464 0.16479339935765
19.1000 0.91996405773010 0.01324254291224 0.16505825021590
19.2000 0.91984223109498 0.01309951868912 0.16532024058968
19.3000 0.91972173619001 0.01295802322031 0.16557940105409
19.4000 0.91960255843387 0.01281804051204 0.16583576186433
19.5000 0.91948468340538 0.01267955473029 0.16608935295893
19.6000 0.91936809684171 0.01254255019935 0.16634020396292
19.7000 0.91925278463665 0.01240701140043 0.16658834419093
19.8000 0.91913873283886 0.01227292297021 0.16683380265033
19.9000 0.91902592765019 0.01214026969948 0.16707660804432
20.0000 0.91891435542396 0.01200903653171 0.16731678877496
20.1000 0.91880400266333 0.01187920856172 0.16755437294619
20.2000 0.91869485601958 0.01175077103423 0.16778938836688
20.3000 0.91858690229054 0.01162370934258 0.16802186255373
20.4000 0.91848012841896 0.01149800902731 0.16825182273428
20.5000 0.91837452149088 0.01137365577484 0.16847929584977
20.6000 0.91827006873408 0.01125063541615 0.16870430855810
20.7000 0.91816675751651 0.01112893392539 0.16892688723660
20.8000 0.91806457534474 0.01100853741865 0.16914705798498
20.9000 0.91796350986244 0.01088943215258 0.16936484662803
21.0000 0.91786354884885 0.01077160452312 0.16958027871849
21.1000 0.91776468021730 0.01065504106421 0.16979337953977
21.2000 0.91766689201375 0.01053972844647 0.17000417410870
21.3000 0.91757017241529 0.01042565347600 0.17021268717822
21.4000 0.91747450972872 0.01031280309306 0.17041894324008
21.5000 0.91737989238910 0.01020116437081 0.17062296652750
21.6000 0.91728630895837 0.01009072451413 0.17082478101778
21.7000 0.91719374812393 0.00998147085829 0.17102441043495
21.8000 0.91710219869725 0.00987339086780 0.17122187825231
21.9000 0.91701164961251 0.00976647213518 0.17141720769501
22.0000 0.91692208992528 0.00966070237971 0.17161042174260
22.1000 0.91683350881111 0.00955606944628 0.17180154313153
22.2000 0.91674589556431 0.00945256130416 0.17199059435761
22.3000 0.91665923959652 0.00935016604586 0.17217759767853
22.4000 0.91657353043555 0.00924887188592 0.17236257511625
22.5000 0.91648875772398 0.00914866715977 0.17254554845944
22.6000 0.91640491121798 0.00904954032258 0.17272653926590
22.7000 0.91632198078602 0.00895147994809 0.17290556886486
22.8000 0.91623995640765 0.00885447472750 0.17308265835941
22.9000 0.91615882817226 0.00875851346833 0.17325782862877
23.0000 0.91607858627791 0.00866358509332 0.17343110033064
23.1000 0.91599922103006 0.00856967863930 0.17360249390343
23.2000 0.91592072284048 0.00847678325609 0.17377202956855
23.3000 0.91584308222601 0.00838488820544 0.17393972733266
23.4000 0.91576628980743 0.00829398285992 0.17410560698985
23.5000 0.91569033630831 0.00820405670183 0.17426968812389
23.6000 0.91561521255391 0.00811509932220 0.17443199011034
23.7000 0.91554090947000 0.00802710041966 0.17459253211873 
23.8000 0.91546741808182 0.00794004979945 0.17475133311472
23.9000 0.91539472951292 0.00785393737236 0.17490841186216
24.0000 0.91532283498416 0.00776875315368 0.17506378692524
24.1000 0.91525172581255 0.00768448726221 0.17521747667048
24.2000 0.91518139341026 0.00760112991926 0.17536949926887
24.3000 0.91511182928355 0.00751867144758 0.17551987269782
24.4000 0.91504302503173 0.00743710227045 0.17566861474323
24.5000 0.91497497234614 0.00735641291063 0.17581574300144
24.6000 0.91490766300914 0.00727659398941 0.17596127488123
24.7000 0.91484108889313 0.00719763622564 0.17610522760574
24.8000 0.91477524195951 0.00711953043475 0.17624761821444
24.9000 0.91471011425775 0.00704226752782 0.17638846356499
25.0000 0.91464569792440 0.00696583851061 0.17652778033521
25.1000 0.91458198518214 0.00689023448266 0.17666558502486
25.2000 0.91451896833882 0.00681544663632 0.17680189395759
25.3000 0.91445663978655 0.00674146625586 0.17693672328270
25.4000 0.91439499200076 0.00666828471654 0.17707008897703
25.5000 0.91433401753926 0.00659589348371 0.17720200684671
25.6000 0.91427370904138 0.00652428411192 0.17733249252895
25.7000 0.91421405922704 0.00645344824402 0.17746156149383
25.8000 0.91415506089589 0.00638337761029 0.17758922904603
25.9000 0.91409670692640 0.00631406402756 0.17771551032658
26.0000 0.91403899027506 0.00624549939836 0.17784042031455
26.1000 0.91398190397542 0.00617767571003 0.17796397382875
26.2000 0.91392544113734 0.00611058503391 0.17808618552943
26.3000 0.91386959494611 0.00604421952446 0.17820706991992
26.4000 0.91381435866163 0.00597857141845 0.17832664134829
26.5000 0.91375972561756 0.00591363303415 0.17844491400897
26.6000 0.91370568922058 0.00584939677045 0.17856190194438
26.7000 0.91365224294950 0.00578585510612 0.17867761904650
26.8000 0.91359938035455 0.00572300059895 0.17879207905848
26.9000 0.91354709505654 0.00566082588498 0.17890529557618
27.0000 0.91349538074611 0.00559932367771 0.17901728204973
27.1000 0.91344423118296 0.00553848676730 0.17912805178508
27.2000 0.91339364019509 0.00547830801983 0.17923761794548
27.3000 0.91334360167805 0.00541878037647 0.17934599355301
27.4000 0.91329410959419 0.00535989685280 0.17945319149006
27.5000 0.91324515797195 0.00530165053798 0.17955922450082
27.6000 0.91319674090512 0.00524403459405 0.17966410519270
27.7000 0.91314885255212 0.00518704225518 0.17976784603781
27.8000 0.91310148713528 0.00513066682691 0.17987045937435
27.9000 0.91305463894019 0.00507490168547 0.17997195740805
28.0000 0.91300830231493 0.00501974027702 0.18007235221359
28.1000 0.91296247166944 0.00496517611696 0.18017165573593
28.2000 0.91291714147484 0.00491120278922 0.18026987979172
28.3000 0.91287230626273 0.00485781394555 0.18036703607063
28.4000 0.91282796062453 0.00480500330484 0.18046313613673
28.5000 0.91278409921085 0.00475276465242 0.18055819142978
28.6000 0.91274071673083 0.00470109183939 0.18065221326656
28.7000 0.91269780795148 0.00464997878195 0.18074521284220
28.8000 0.91265536769707 0.00459941946073 0.18083720123142
28.9000 0.91261339084848 0.00454940792010 0.18092818938982
29.0000 0.91257187234260 0.00449993826759 0.18101818815517
29.1000 0.91253080717169 0.00445100467314 0.18110720824863
29.2000 0.91249019038282 0.00440260136854 0.18119526027600
29.3000 0.91245001707721 0.00435472264678 0.18128235472894
29.4000 0.91241028240968 0.00430736286138 0.18136850198617
29.5000 0.91237098158803 0.00426051642580 0.18145371231468
29.6000 0.91233210987250 0.00421417781282 0.18153799587094
29.7000 0.91229366257514 0.00416834155392 0.18162136270202
29.8000 0.91225563505931 0.00412300223867 0.18170382274679
29.9000 0.91221802273905 0.00407815451415 0.18178538583707
30.0000 0.91218082107858 0.00403379308434 0.18186606169876
30.1000 0.91214402559170 0.00398991270953 0.18194585995295
30.2000 0.91210763184130 0.00394650820575 0.18202479011707
30.3000 0.91207163543876 0.00390357444417 0.18210286160595
30.4000 0.91203603204349 0.00386110635056 0.18218008373296
30.5000 0.91200081736234 0.00381909890470 0.18225646571106
30.6000 0.91196598714911 0.00377754713983 0.18233201665385
30.7000 0.91193153720405 0.00373644614210 0.18240674557669
30.8000 0.91189746337330 0.00369579105000 0.18248066139769
30.9000 0.91186376154847 0.00365557705384 0.18255377293877
31.0000 0.91183042766604 0.00361579939519 0.18262608892668
31.1000 0.91179745770695 0.00357645336637 0.18269761799400
31.2000 0.91176484769608 0.00353753430992 0.18276836868020
31.3000 0.91173259370177 0.00349903761803 0.18283834943256
31.4000 0.91170069183534 0.00346095873210 0.18290756860720
31.5000 0.91166913825063 0.00342329314216 0.18297603447005
31.6000 0.91163792914354 0.00338603638641 0.18304375519778
31.7000 0.91160706075155 0.00334918405067 0.18311073887879
31.8000 0.91157652935327 0.00331273176794 0.18317699351415
31.9000 0.91154633126799 0.00327667521786 0.18324252701850
32.0000 0.91151646285525 0.00324101012624 0.18330734722103
32.1000 0.91148692051439 0.00320573226458 0.18337146186632
32.2000 0.91145770068409 0.00317083744959 0.18343487861531
32.3000 0.91142879984198 0.00313632154271 0.18349760504617
32.4000 0.91140021450419 0.00310218044965 0.18355964865516
32.5000 0.91137194122491 0.00306841011993 0.18362101685756
32.6000 0.91134397659604 0.00303500654640 0.18368171698849
32.7000 0.91131631724669 0.00300196576482 0.18374175630378
32.8000 0.91128895984284 0.00296928385338 0.18380114198085
32.9000 0.91126190108689 0.00293695693226 0.18385988111950
33.0000 0.91123513771732 0.00290498116319 0.18391798074276
33.1000 0.91120866650822 0.00287335274903 0.18397544779774
33.2000 0.91118248426895 0.00284206793331 0.18403228915641
33.3000 0.91115658784375 0.00281112299985 0.18408851161640
33.4000 0.91113097411134 0.00278051427225 0.18414412190185
33.5000 0.91110563998457 0.00275023811358 0.18419912666412
33.6000 0.91108058241000 0.00272029092588 0.18425353248264
33.7000 0.91105579836759 0.00269066914977 0.18430734586563
33.8000 0.91103128487029 0.00266136926408 0.18436057325091
