# Time t_n, Numerical sol. X_n, Exact sol. x(t_n), Error e_n
0.0000      2.00000000000000   2.00000000000000  0.0000000000e+00
0.0050      1.99000000000000   1.99007446221161  7.4462211608e-05
0.0100      1.98014950000000   1.98029572827782  1.4622827782e-04
0.0150      1.97044528728825   1.97066068470425  2.1539741600e-04
0.0200      1.96088424057371   1.96116630528919  2.8206471548e-04
0.0250      1.95146332675192   1.95180964808484  3.4632133291e-04
0.0300      1.94217959780740   1.94258785248467  4.0825467727e-04
0.0350      1.93303018784574   1.93349813643070  4.6794858496e-04
0.0400      1.92401231024935   1.92453779373510  5.2548348575e-04
0.0450      1.91512325495064   1.91570419151065  5.8093656000e-04
0.0500      1.90636038581713   1.90699476770490  6.3438188777e-04
0.0550      1.89772113814315   1.89840702873327  6.8589059012e-04
0.0600      1.88920301624309   1.88993854720633  7.3553096324e-04
0.0650      1.88080359114140   1.88158695974711  7.8336860572e-04
0.0700      1.87252049835485   1.87334996489418  8.2946653933e-04
0.0750      1.86435143576283   1.86522532108658  8.7388532375e-04
0.0800      1.85629416156149   1.85721084472702  9.1668316553e-04
0.0850      1.84834649229806   1.84930440831971  9.5791602165e-04
0.0900      1.84050630098160   1.84150393867949  9.9763769789e-04
0.0950      1.83277151526674   1.83380741520919  1.0358999425e-03
0.1000      1.82514011570721   1.82621286824212  1.0727525349e-03
0.1050      1.81761013407593   1.81871837744685  1.1082433709e-03
0.1100      1.81017965174883   1.81132207029159  1.1424185428e-03
0.1150      1.80284679814955   1.80402212056559  1.1753224160e-03
0.1200      1.79560974925230   1.79681674695503  1.2069977027e-03
0.1250      1.78846672614052   1.78970421167123  1.2374855307e-03
0.1300      1.78141599361866   1.78268281912879  1.2668255101e-03
0.1350      1.77445585887515   1.77575091467156  1.2950557964e-03
0.1400      1.76758467019405   1.76890688334466  1.3222131506e-03
0.1450      1.76080081571349   1.76214914871023  1.3483329967e-03
0.1500      1.75410272222897   1.75547617170554  1.3734494766e-03
0.1550      1.74748885403946   1.74888644954130  1.3975955018e-03
0.1600      1.74095771183470   1.74237851463882  1.4208028041e-03
0.1650      1.73450783162189   1.73595093360432  1.4431019824e-03
0.1700      1.72813778369021   1.72960230623883  1.4645225486e-03
0.1750      1.72184617161157   1.72333126458238  1.4850929708e-03
0.1800      1.71563163127616   1.71713647199094  1.5048407148e-03
0.1850      1.70949282996137   1.71101662224501  1.5237922836e-03
0.1900      1.70342846543273   1.70497043868839  1.5419732557e-03
0.1950      1.69743726507566   1.69899667339609  1.5594083204e-03
0.2000      1.69151798505670   1.69309410637017  1.5761213135e-03
0.2050      1.68566940951313   1.68726154476246  1.5921352493e-03
0.2100      1.67989034976985   1.68149782212307  1.6074723532e-03
0.2150      1.67417964358245   1.67580179767378  1.6221540913e-03
0.2200      1.66853615440544   1.67017235560524  1.6362011998e-03
0.2250      1.66295877068467   1.66460840439714  1.6496337125e-03
0.2300      1.65744640517311   1.65910887616055  1.6624709874e-03
0.2350      1.65199799426887   1.65367272600140  1.6747317325e-03
0.2400      1.64661249737487   1.64829893140451  1.6864340296e-03
0.2450      1.64128889627919   1.64298649163730  1.6975953581e-03
0.2500      1.63602619455534   1.63773442717245  1.7082326171e-03
0.2550      1.63082341698176   1.63254177912883  1.7183621471e-03
0.2600      1.62567960897979   1.62740760873005  1.7279997503e-03
0.2650      1.62059383606943   1.62233099677990  1.7371607105e-03
0.2700      1.61556518334224   1.61731104315425  1.7458598120e-03
0.2750      1.61059275495081   1.61234686630856  1.7541113577e-03
0.2800      1.60567567361407   1.60743760280065  1.7619291866e-03
0.2850      1.60081308013796   1.60258240682810  1.7693266901e-03
0.2900      1.59600413295094   1.59778044977973  1.7763168288e-03
0.2950      1.59124800765372   1.59303091980077  1.7829121471e-03
0.3000      1.58654389658268   1.58833302137106  1.7891247884e-03
0.3050      1.58189100838667   1.58368597489603  1.7949665094e-03
0.3100      1.57728856761653   1.57908901630982  1.8004486933e-03
0.3150      1.57273581432694   1.57454139669033  1.8055823634e-03
0.3200      1.56823200369025   1.57004238188553  1.8103781953e-03
0.3250      1.56377640562171   1.56559125215087  1.8148465292e-03
0.3300      1.55936830441592   1.56118730179732  1.8189973814e-03
0.3350      1.55500699839391   1.55682983884963  1.8228404557e-03
0.3400      1.55069179956061   1.55251818471455  1.8263851539e-03
0.3450      1.54642203327229   1.54825167385864  1.8296405863e-03
0.3500      1.54219703791370   1.54402965349534  1.8326155816e-03
0.3550      1.53801616458452   1.53985148328097  1.8353186965e-03
0.3600      1.53387877679483   1.53571653501945  1.8377582246e-03
0.3650      1.52978425016930   1.53162419237532  1.8399422060e-03
0.3700      1.52573197215981   1.52757385059490  1.8418784351e-03
0.3750      1.52172134176626   1.52356491623529  1.8435744690e-03
0.3800      1.51775176926515   1.51959680690093  1.8450376358e-03
0.3850      1.51382267594594   1.51566895098749  1.8462750415e-03
0.3900      1.50993349385463   1.51178078743282  1.8472935782e-03
0.3950      1.50608366554459   1.50793176547486  1.8480999303e-03
0.4000      1.50227264383421   1.50412134441609  1.8487005819e-03
0.4050      1.49849989157131   1.50034899339449  1.8491018232e-03
0.4100      1.49476488140398   1.49661419116067  1.8493097567e-03
0.4150      1.49106709555760   1.49291642586110  1.8493303035e-03
0.4200      1.48740602561812   1.48925519482710  1.8491692090e-03
0.4250      1.48378117232098   1.48563000436958  1.8488320486e-03
0.4300      1.48019204534592   1.48204036957918  1.8483242333e-03
0.4350      1.47663816311712   1.47848581413181  1.8476510147e-03
0.4400      1.47311905260883   1.47496587009925  1.8468174904e-03
0.4450      1.46963424915608   1.47148007776481  1.8458286087e-03
0.4500      1.46618329627040   1.46802798544377  1.8446891734e-03
0.4550      1.46276574546044   1.46460914930862  1.8434038482e-03
0.4600      1.45938115605728   1.46122313321867  1.8419771614e-03
0.4650      1.45602909504429   1.45786950855425  1.8404135100e-03
0.4700      1.45270913689144   1.45454785405508  1.8387171636e-03
0.4750      1.44942086339385   1.45125775566284  1.8368922690e-03
0.4800      1.44616386351462   1.44799880636774  1.8349428531e-03
0.4850      1.44293773323151   1.44477060605897  1.8328728275e-03
0.4900      1.43974207538775   1.44157276137906  1.8306859913e-03
0.4950      1.43657649954648   1.43840488558176  1.8283860353e-03
0.5000      1.43344062184897   1.43526659839358  1.8259765446e-03
0.5050      1.43033406487638   1.43215752587884  1.8234610025e-03
0.5100      1.42725645751503   1.42907730030794  1.8208427929e-03
0.5150      1.42420743482502   1.42602556002909  1.8181252041e-03
0.5200      1.42118663791209   1.42300194934304  1.8153114310e-03
0.5250      1.41819371380275   1.42000611838099  1.8124045782e-03
0.5300      1.41522831532241   1.41703772298548  1.8094076631e-03
0.5350      1.41229010097657   1.41409642459418  1.8063236176e-03
0.5400      1.40937873483488   1.41118189012653  1.8031552917e-03
0.5450      1.40649388641803   1.40829379187305  1.7999054550e-03
0.5500      1.40363523058746   1.40543180738745  1.7965768000e-03
0.5550      1.40080244743767   1.40259561938119  1.7931719435e-03
0.5600      1.39799522219112   1.39978491562069  1.7896934296e-03
0.5650      1.39521324509573   1.39699938882694  1.7861437312e-03
0.5700      1.39245621132475   1.39423873657742  1.7825252527e-03
0.5750      1.38972382087909   1.39150266121049  1.7788403314e-03
0.5800      1.38701577849189   1.38879086973192  1.7750912400e-03
0.5850      1.38433179353543   1.38610307372366  1.7712801882e-03
0.5900      1.38167157993014   1.38343898925471  1.7674093246e-03
0.5950      1.37903485605585   1.38079833679409  1.7634807382e-03
0.6000      1.37642134466505   1.37818084112586  1.7594964608e-03
0.6050      1.37383077279813   1.37558623126604  1.7554584679e-03
0.6100      1.37126287170068   1.37301424038147  1.7513686808e-03
0.6150      1.36871737674266   1.37046460571054  1.7472289679e-03
0.6200      1.36619402733939   1.36793706848573  1.7430411463e-03
0.6250      1.36369256687440   1.36543137385792  1.7388069835e-03
0.6300      1.36121274262403   1.36294727082236  1.7345281983e-03
0.6350      1.35875430568374   1.36048451214639  1.7302064627e-03
0.6400      1.35631701089608   1.35804285429877  1.7258434027e-03
0.6450      1.35390061678033   1.35562205738052  1.7214406002e-03
0.6500      1.35150488546364   1.35322188505740  1.7169995938e-03
0.6550      1.34912958261380   1.35084210449386  1.7125218801e-03
0.6600      1.34677447737345   1.34848248628843  1.7080089150e-03
0.6650      1.34443934229580   1.34614280441056  1.7034621148e-03
0.6700      1.34212395328171   1.34382283613884  1.6988828571e-03
0.6750      1.33982808951826   1.34152236200061  1.6942724823e-03
0.6800      1.33755153341854   1.33924116571280  1.6896322943e-03
0.6850      1.33529407056288   1.33697903412420  1.6849635613e-03
0.6900      1.33305548964129   1.33473575715881  1.6802675175e-03
0.6950      1.33083558239719   1.33251112776058  1.6755453634e-03
0.7000      1.32863414357230   1.33030494183922  1.6707982669e-03
0.7050      1.32645097085283   1.32811699821723  1.6660273644e-03
0.7100      1.32428586481671   1.32594709857805  1.6612337613e-03
0.7150      1.32213862888203   1.32379504741531  1.6564185333e-03
0.7200      1.32000906925653   1.32166065198317  1.6515827266e-03
0.7250      1.31789699488821   1.31954372224768  1.6467273595e-03
0.7300      1.31580221741698   1.31744407083923  1.6418534223e-03
0.7350      1.31372455112727   1.31536151300590  1.6369618786e-03
0.7400      1.31166381290173   1.31329586656790  1.6320536662e-03
0.7450      1.30961982217586   1.31124695187285  1.6271296970e-03
0.7500      1.30759240089356   1.30921459175208  1.6221908585e-03
0.7550      1.30558137346365   1.30719861147779  1.6172380141e-03
0.7600      1.30358656671730   1.30519883872109  1.6122720038e-03
0.7650      1.30160780986625   1.30321510351092  1.6072936447e-03
0.7700      1.29964493446206   1.30124723819381  1.6023037318e-03
0.7750      1.29769777435601   1.29929507739449  1.5973030385e-03
0.7800      1.29576616565994   1.29735845797722  1.5922923173e-03
0.7850      1.29384994670790   1.29543721900797  1.5872723001e-03
0.7900      1.29194895801846   1.29353120171738  1.5822436989e-03
0.7950      1.29006304225792   1.29164024946444  1.5772072065e-03
0.8000      1.28819204420421   1.28976420770084  1.5721634966e-03
0.8050      1.28633581071148   1.28790292393618  1.5671132247e-03
0.8100      1.28449419067544   1.28605624770370  1.5620570283e-03
0.8150      1.28266703499943   1.28422403052684  1.5569955274e-03
0.8200      1.28085419656105   1.28240612588638  1.5519293253e-03
0.8250      1.27905553017962   1.28060238918826  1.5468590086e-03
0.8300      1.27727089258410   1.27881267773198  1.5417851479e-03
0.8350      1.27550014238181   1.27703685067975  1.5367082979e-03
0.8400      1.27374314002764   1.27527476902607  1.5316289984e-03
0.8450      1.27199974779394   1.27352629556806  1.5265477741e-03
0.8500      1.27026982974097   1.27179129487626  1.5214651353e-03
0.8550      1.26855325168792   1.27006963326604  1.5163815781e-03
0.8600      1.26684988118452   1.26836117876956  1.5112975850e-03
0.8650      1.26515958748316   1.26666580110829  1.5062136251e-03
0.8700      1.26348224151157   1.26498337166598  1.5011301544e-03
0.8750      1.26181771584605   1.26331376346227  1.4960476162e-03
0.8800      1.26016588468517   1.26165685112667  1.4909664415e-03
0.8850      1.25852662382397   1.26001251087313  1.4858870492e-03
0.8900      1.25689981062872   1.25838062047508  1.4808098464e-03
0.8950      1.25528532401207   1.25676105924087  1.4757352288e-03
0.9000      1.25368304440873   1.25515370798978  1.4706635810e-03
0.9050      1.25209285375159   1.25355844902838  1.4655952768e-03
0.9100      1.25051463544827   1.25197516612741  1.4605306791e-03
0.9150      1.24894827435816   1.25040374449904  1.4554701409e-03
0.9200      1.24739365676984   1.24884407077458  1.4504140047e-03
0.9250      1.24585067037894   1.24729603298260  1.4453626037e-03
0.9300      1.24431920426641   1.24575952052742  1.4403162610e-03
0.9350      1.24279914887722   1.24423442416807  1.4352752908e-03
0.9400      1.24129039599935   1.24272063599754  1.4302399982e-03
0.9450      1.23979283874335   1.24121804942253  1.4252106792e-03
0.9500      1.23830637152207   1.23972655914343  1.4201876214e-03
0.9550      1.23683089003092   1.23824606113478  1.4151711039e-03
0.9600      1.23536629122840   1.23677645262602  1.4101613976e-03
0.9650      1.23391247331702   1.23531763208263  1.4051587656e-03
0.9700      1.23246933572457   1.23386949918757  1.4001634630e-03
0.9750      1.23103677908569   1.23243195482308  1.3951757374e-03
0.9800      1.22961470522381   1.23100490105279  1.3901958290e-03
0.9850      1.22820301713341   1.22958824110418  1.3852239708e-03
0.9900      1.22680161896260   1.22818187935130  1.3802603887e-03
0.9950      1.22541041599597   1.22678572129786  1.3753053019e-03
1.0000      1.22402931463779   1.22539967356056  1.3703589228e-03
1.0050      1.22265822239552   1.22402364385279  1.3654214573e-03
1.0100      1.22129704786354   1.22265754096848  1.3604931049e-03
1.0150      1.21994570070726   1.22130127476644  1.3555740592e-03
1.0200      1.21860409164742   1.21995475615474  1.3506645073e-03
1.0250      1.21727213244476   1.21861789707557  1.3457646308e-03
1.0300      1.21594973588485   1.21729061049024  1.3408746054e-03
1.0350      1.21463681576328   1.21597281036445  1.3359946012e-03
1.0400      1.21333328687106   1.21466441165389  1.3311247828e-03
1.0450      1.21203906498027   1.21336533028998  1.3262653097e-03
1.0500      1.21075406682998   1.21207548316596  1.3214163360e-03
1.0550      1.20947821011240   1.21079478812315  1.3165780107e-03
1.0600      1.20821141345928   1.20952316393746  1.3117504782e-03
1.0650      1.20695359642851   1.20826053030618  1.3069338777e-03
1.0700      1.20570467949100   1.20700680783486  1.3021283439e-03
1.0750      1.20446458401772   1.20576191802461  1.2973340069e-03
1.0800      1.20323323226704   1.20452578325943  1.2925509924e-03
1.0850      1.20201054737222   1.20329832679389  1.2877794217e-03
1.0900      1.20079645332911   1.20207947274089  1.2830194118e-03
1.0950      1.19959087498412   1.20086914605977  1.2782710757e-03
1.1000      1.19839373802231   1.19966727254450  1.2735345222e-03
1.1050      1.19720496895577   1.19847377881212  1.2688098564e-03
1.1100      1.19602449511208   1.19728859229136  1.2640971793e-03
1.1150      1.19485224462310   1.19611164121145  1.2593965883e-03
1.1200      1.19368814641381   1.19494285459113  1.2547081773e-03
1.1250      1.19253213019144   1.19378216222782  1.2500320364e-03
1.1300      1.19138412643470   1.19262949468698  1.2453682523e-03
1.1350      1.19024406638327   1.19148478329162  1.2407169083e-03
1.1400      1.18911188202739   1.19034796011203  1.2360780846e-03
1.1450      1.18798750609763   1.18921895795564  1.2314518580e-03
1.1500      1.18687087205490   1.18809771035705  1.2268383022e-03
1.1550      1.18576191408051   1.18698415156824  1.2222374877e-03
1.1600      1.18466056706649   1.18587821654889  1.2176494824e-03
1.1650      1.18356676660601   1.18477984095695  1.2130743509e-03
1.1700      1.18248044898397   1.18368896113926  1.2085121553e-03
1.1750      1.18140155116775   1.18260551412234  1.2039629546e-03
1.1800      1.18033001079808   1.18152943760345  1.1994268054e-03
1.1850      1.17926576618011   1.18046066994156  1.1949037614e-03
1.1900      1.17820875627459   1.17939915014872  1.1903938741e-03
1.1950      1.17715892068916   1.17834481788136  1.1858971922e-03
1.2000      1.17611619966981   1.17729761343186  1.1814137621e-03
1.2050      1.17508053409253   1.17625747772019  1.1769436277e-03
1.2100      1.17405186545498   1.17522435228567  1.1724868307e-03
1.2150      1.17303013586836   1.17419817927895  1.1680434106e-03
1.2200      1.17201528804943   1.17317890145400  1.1636134046e-03
1.2250      1.17100726531257   1.17216646216029  1.1591968477e-03
1.2300      1.17000601156205   1.17116080533509  1.1547937730e-03
1.2350      1.16901147128441   1.17016187549588  1.1504042115e-03
1.2400      1.16802358954086   1.16916961773286  1.1460281920e-03
1.2450      1.16704231195994   1.16818397770161  1.1416657417e-03
1.2500      1.16606758473022   1.16720490161583  1.1373168856e-03
1.2550      1.16509935459308   1.16623233624024  1.1329816472e-03
1.2600      1.16413756883567   1.16526622888350  1.1286600478e-03
1.2650      1.16318217528398   1.16430652739138  1.1243521074e-03
1.2700      1.16223312229591   1.16335318013986  1.1200578439e-03
1.2750      1.16129035875458   1.16240613602847  1.1157772739e-03
1.2800      1.16035383406167   1.16146534447370  1.1115104120e-03
1.2850      1.15942349813087   1.16053075540247  1.1072572716e-03
1.2900      1.15849930138144   1.15960231924573  1.1030178643e-03
1.2950      1.15758119473184   1.15867998693215  1.0987922003e-03
1.3000      1.15666912959351   1.15776370988191  1.0945802884e-03
1.3050      1.15576305786471   1.15685344000059  1.0903821359e-03
1.3100      1.15486293192441   1.15594912967311  1.0861977487e-03
1.3150      1.15396870462636   1.15505073175783  1.0820271315e-03
1.3200      1.15308032929321   1.15415819958067  1.0778702875e-03
1.3250      1.15219775971066   1.15327148692935  1.0737272187e-03
1.3300      1.15132095012180   1.15239054804773  1.0695979259e-03
1.3350      1.15044985522146   1.15151533763020  1.0654824087e-03
1.3400      1.14958443015068   1.15064581081615  1.0613806655e-03
1.3450      1.14872463049121   1.14978192318460  1.0572926934e-03
1.3500      1.14787041226018   1.14892363074877  1.0532184886e-03
1.3550      1.14702173190476   1.14807088995086  1.0491580461e-03
1.3600      1.14617854629698   1.14722365765685  1.0451113599e-03
1.3650      1.14534081272851   1.14638189115136  1.0410784229e-03
1.3700      1.14450848890564   1.14554554813261  1.0370592270e-03
1.3750      1.14368153294428   1.14471458670746  1.0330537632e-03
1.3800      1.14285990336502   1.14388896538648  1.0290620215e-03
1.3850      1.14204355908824   1.14306864307916  1.0250839909e-03
1.3900      1.14123245942941   1.14225357908912  1.0211196597e-03
1.3950      1.14042656409428   1.14144373310943  1.0171690151e-03
1.4000      1.13962583317429   1.14063906521797  1.0132320437e-03
1.4050      1.13883022714197   1.13983953587290  1.0093087309e-03
1.4100      1.13803970684642   1.13904510590813  1.0053990617e-03
1.4150      1.13725423350886   1.13825573652892  1.0015030201e-03
1.4200      1.13647376871823   1.13747138930748  9.9762058925e-04
1.4250      1.13569827442690   1.13669202617871  9.9375175181e-04
1.4300      1.13492771294636   1.13591760943590  9.8989648955e-04
1.4350      1.13416204694302   1.13514810172661  9.8605478359e-04
1.4400      1.13340123943410   1.13438346604846  9.8222661435e-04
1.4450      1.13264525378352   1.13362366574515  9.7841196163e-04
1.4500      1.13189405369785   1.13286866450238  9.7461080453e-04
1.4550      1.13114760322235   1.13211842634394  9.7082312158e-04
1.4600      1.13040586673709   1.13137291562777  9.6704889068e-04
1.4650      1.12966880895300   1.13063209704215  9.6328808915e-04
1.4700      1.12893639490816   1.12989593560189  9.5954069372e-04
1.4750      1.12820858996396   1.12916439664457  9.5580668060e-04
1.4800      1.12748535980144   1.12843744582688  9.5208602544e-04
1.4850      1.12676667041761   1.12771504912099  9.4837870338e-04
1.4900      1.12605248812188   1.12699717281092  9.4468468904e-04
1.4950      1.12534277953246   1.12628378348902  9.4100395656e-04
1.5000      1.12463751157290   1.12557484805250  9.3733647960e-04
1.5050      1.12393665146858   1.12487033369995  9.3368223138e-04
