# Time t_n, Numerical sol. X_n, Exact sol. x(t_n), Error e_n
0.0000      2.00000000000000   2.00000000000000  0.0000000000e+00
0.0500      1.90000000000000   1.90699476770490  6.9947677049e-03
0.1000      1.81450000000000   1.82621286824212  1.1712868242e-02
0.1500      1.74060448750000   1.75547617170554  1.4871684206e-02
0.2000      1.67614951277974   1.69309410637017  1.6944593590e-02
0.2500      1.61948312895914   1.63773442717245  1.8251298213e-02
0.3000      1.56932100515793   1.58833302137106  1.9012016213e-02
0.3500      1.52464863455434   1.54402965349534  1.9381018941e-02
0.4000      1.48465339333963   1.50412134441609  1.9467951076e-02
0.4500      1.44867627808887   1.46802798544377  1.9351707355e-02
0.5000      1.41617694405844   1.43526659839358  1.9089654335e-02
0.5500      1.38670793441723   1.40543180738745  1.8723872970e-02
0.6000      1.35989538636931   1.37818084112586  1.8285454757e-02
0.6500      1.33542438259434   1.35322188505740  1.7797502463e-02
0.7000      1.31302768764269   1.33030494183922  1.7277254197e-02
0.7500      1.29247698659901   1.30921459175208  1.6737605153e-02
0.8000      1.27357599788455   1.28976420770084  1.6188209816e-02
0.8500      1.25615500665940   1.27179129487626  1.5636288217e-02
0.9000      1.24006648695460   1.25515370798978  1.5087221035e-02
0.9500      1.22518156669893   1.23972655914343  1.4544992444e-02
1.0000      1.21138715146493   1.22539967356056  1.4012522096e-02
1.0500      1.19858356750147   1.21207548316596  1.3491915664e-02
1.1000      1.18668261746231   1.19966727254450  1.2984655082e-02
1.1500      1.17560596660607   1.18809771035705  1.2491743751e-02
1.2000      1.16528379550038   1.17729761343186  1.2013817931e-02
1.2500      1.15565366907261   1.16720490161583  1.1551232543e-02
1.3000      1.14665958238419   1.15776370988191  1.1104127498e-02
1.3500      1.13825115160973   1.14892363074877  1.0672479139e-02
1.4000      1.13038292498317   1.14063906521797  1.0256140235e-02
1.4500      1.12301379337765   1.13286866450238  9.8548711247e-03
1.5000      1.11610648404071   1.12557484805250  9.4683640118e-03
1.5500      1.10962712405686   1.11872338597264  9.0962619158e-03
1.6000      1.10354486253757   1.11228303599606  8.7381734585e-03
1.6500      1.09783154248280   1.10622522686688  8.3936843841e-03
1.7000      1.09246141482343   1.10052378133947  8.0623665160e-03
1.7500      1.08741088842070   1.09515467311794  7.7437846972e-03
1.8000      1.08265831082894   1.09009581296943  7.4375021405e-03
1.8500      1.07818377547004   1.08532685999483  7.1430845248e-03
1.9000      1.07396895155920   1.08082905466065  6.8601031015e-03
1.9500      1.06999693369150   1.07658507070955  6.5881370181e-03
2.0000      1.06625210847061   1.07257888349575  6.3267750251e-03
2.0500      1.06272003595324   1.06879565264945  6.0756166962e-03
2.1000      1.05938734401008   1.06522161727466  5.8342732646e-03
2.1500      1.05624163397815   1.06184400213794  5.6023681598e-03
2.2000      1.05327139620962   1.05865093351854  5.3795373089e-03
2.2500      1.05046593431643   1.05563136357183  5.1654292554e-03
2.3000      1.04781529707429   1.05277500221097  4.9597051367e-03
2.3500      1.04531021708886   1.05007225564324  4.7620385544e-03
2.4000      1.04294205544578   1.04751417080871  4.5721153629e-03
2.4500      1.04070275166720   1.04509238506523  4.3896333980e-03
2.5000      1.03858477838417   1.04279908054580  4.2143021616e-03
2.5500      1.03658110020882   1.04062694268528  4.0458424765e-03
2.6000      1.03468513635375   1.03856912247455  3.8839861208e-03
2.6500      1.03289072660187   1.03661920205340  3.7284754515e-03
2.7000      1.03119210027696   1.03477116329891  3.5790630219e-03
2.7500      1.02958384790712   1.03301935910640  3.4355111993e-03
2.8000      1.02806089530892   1.03135848709464  3.2975917857e-03
2.8500      1.02661847985120   1.02978356549713  3.1650856459e-03
2.9000      1.02525212868516   1.02828991102814  3.0377823430e-03
2.9500      1.02395763875074   1.02687311853524  2.9154797845e-03
3.0000      1.02273105839048   1.02552904227037  2.7979838799e-03
3.0500      1.02156867042018   1.02425377862973  2.6851082096e-03
3.1000      1.02046697652198   1.02304365022829  2.5766737063e-03
3.1500      1.01942268283949   1.02189519118882  2.4725083493e-03
3.2000      1.01843268666708   1.02080513353771  2.3724468706e-03
3.2500      1.01749406413684   1.01977039461063  2.2763304738e-03
3.3000      1.01660405881599   1.01878806538091  2.1840065649e-03
3.3500      1.01576007113674   1.01785539963207  2.0953284953e-03
3.4000      1.01495964858779   1.01696980390359  2.0101553158e-03
3.4500      1.01420047660410   1.01612882814579  1.9283515417e-03
3.5000      1.01348037009711   1.01533015702598  1.8497869289e-03
3.5500      1.01279726557336   1.01457160183304  1.7743362597e-03
3.6000      1.01214921379438   1.01385109293309  1.7018791387e-03
3.6500      1.01153437293487   1.01316667273267  1.6322997978e-03
3.7000      1.01095100220018   1.01251648911008  1.5654869099e-03
3.7500      1.01039745586771   1.01189878927913  1.5013334114e-03
3.8000      1.00987217771990   1.01131191405234  1.4397363324e-03
3.8500      1.00937369583926   1.01075429247390  1.3805966346e-03
3.9000      1.00890061773861   1.01022443679500  1.3238190564e-03
3.9500      1.00845162580187   1.00972093776653  1.2693119647e-03
4.0000      1.00802547301284   1.00924246022634  1.2169872135e-03
4.0500      1.00762097895135   1.00878773895994  1.1667600086e-03
4.1000      1.00723702603777   1.00835557481549  1.1185487777e-03
4.1500      1.00687255600859   1.00794483105526  1.0722750467e-03
4.2000      1.00652656660686   1.00755442992739  1.0278633205e-03
4.2500      1.00619810847293   1.00718334944285  9.8524096992e-04
4.3000      1.00588628222185   1.00683062034371  9.4433812186e-04
4.3500      1.00559023569484   1.00649532325016  9.0508755532e-04
4.4000      1.00530916137334   1.00617658597426  8.6742460092e-04
4.4500      1.00504229394495   1.00587358098967  8.3128704472e-04
4.5000      1.00478890801129   1.00558552304722  7.9661503593e-04
4.5500      1.00454831592873   1.00531166692694  7.6335099822e-04
4.6000      1.00431986577340   1.00505130531799  7.3143954459e-04
4.6500      1.00410293942272   1.00480376681831  7.0082739560e-04
4.7000      1.00389695074599   1.00456841404668  6.7146330070e-04
4.7500      1.00370134389743   1.00434464186013  6.4329796270e-04
4.8000      1.00351559170523   1.00413187567031  6.1628396509e-04
4.8500      1.00333919415071   1.00392956985282  5.9037570211e-04
4.9000      1.00317167693230   1.00373720624384  5.6552931154e-04
4.9500      1.00301259010896   1.00355429271892  5.4170260996e-04
5.0000      1.00286150681855   1.00338036184903  5.1885503048e-04
###  max_n |e_n|=1.9467951076e-02