# Time t_n, Numerical sol. X_n, Exact sol. x(t_n), Error e_n
0.0000      2.00000000000000   2.00000000000000  0.0000000000e+00
0.0500      1.90725000000000   1.90699476770490  2.5523229510e-04
0.1000      1.82663283598454   1.82621286824212  4.1996774241e-04
0.1500      1.75600049286601   1.75547617170554  5.2432116047e-04
0.2000      1.69368195233044   1.69309410637017  5.8784596027e-04
0.2500      1.63835792371890   1.63773442717245  6.2349654644e-04
0.3000      1.58897302583321   1.58833302137106  6.4000446215e-04
0.3500      1.54467299526711   1.54402965349534  6.4334177177e-04
0.4000      1.50475898822592   1.50412134441609  6.3764380983e-04
0.4500      1.46865378880565   1.46802798544377  6.2580336187e-04
0.5000      1.43587645890245   1.43526659839358  6.0986050887e-04
0.5500      1.40602307012488   1.40543180738745  5.9126273743e-04
0.6000      1.37875188225400   1.37818084112586  5.7104112813e-04
0.6500      1.35377181638765   1.35322188505740  5.4993133025e-04
0.7000      1.33083339948736   1.33030494183922  5.2845764814e-04
0.7500      1.30972158388673   1.30921459175208  5.0699213465e-04
0.8000      1.29025000423431   1.28976420770084  4.8579653347e-04
0.8500      1.27225634718993   1.27179129487626  4.6505231367e-04
0.9000      1.25559859033767   1.25515370798978  4.4488234789e-04
0.9500      1.24015192581244   1.23972655914343  4.2536666901e-04
1.0000      1.22580622755359   1.22539967356056  4.0655399302e-04
1.0500      1.21246395335604   1.21207548316596  3.8847019009e-04
1.1000      1.20003839708379   1.19966727254450  3.7112453929e-04
1.1500      1.18845222472015   1.18809771035705  3.5451436310e-04
1.2000      1.17763624190191   1.17729761343186  3.3862847005e-04
1.2500      1.16752835133175   1.16720490161583  3.2344971592e-04
1.3000      1.15807266679190   1.15776370988191  3.0895690998e-04
1.3500      1.14921875698120   1.14892363074877  2.9512623243e-04
1.4000      1.14092099750372   1.14063906521797  2.8193228575e-04
1.4500      1.13313801337354   1.13286866450238  2.6934887117e-04
1.5000      1.12583219761067   1.12557484805250  2.5734955817e-04
1.5500      1.11896929407067   1.11872338597264  2.4590809803e-04
1.6000      1.11251803471567   1.11228303599606  2.3499871961e-04
1.6500      1.10644982320336   1.10622522686688  2.2459633648e-04
1.7000      1.10073845802665   1.10052378133947  2.1467668718e-04
1.7500      1.09535988954320   1.09515467311794  2.0521642525e-04
1.8000      1.09029200614118   1.09009581296943  1.9619317176e-04
1.8500      1.08551444553469   1.08532685999483  1.8758553986e-04
1.9000      1.08100842779950   1.08082905466065  1.7937313885e-04
1.9500      1.07675660727272   1.07658507070955  1.7153656317e-04
2.0000      1.07274294086649   1.07257888349575  1.6405737073e-04
2.0500      1.06895257070328   1.06879565264945  1.5691805384e-04
2.1000      1.06537171927965   1.06522161727466  1.5010200499e-04
2.1500      1.06198759561764   1.06184400213794  1.4359347970e-04
2.2000      1.05878831107597   1.05865093351854  1.3737755742e-04
2.2500      1.05576280367374   1.05563136357183  1.3144010191e-04
2.3000      1.05290076993254   1.05277500221097  1.2576772157e-04
2.3500      1.05019260337373   1.05007225564324  1.2034773049e-04
2.4000      1.04762933891918   1.04751417080871  1.1516811047e-04
2.4500      1.04520260253962   1.04509238506523  1.1021747439e-04
2.5000      1.04290456557688   1.04279908054580  1.0548503107e-04
2.5500      1.04072790323694   1.04062694268528  1.0096055167e-04
2.6000      1.03866575681234   1.03856912247455  9.6634337787e-05
2.6500      1.03671169924466   1.03661920205340  9.2497191254e-05
2.7000      1.03485970368442   1.03477116329891  8.8540385512e-05
2.7500      1.03310411474506   1.03301935910640  8.4755638659e-05
2.8000      1.03143962218269   1.03135848709464  8.1135088049e-05
2.8500      1.02986123676353   1.02978356549713  7.7671266400e-05
2.9000      1.02836426810748   1.02828991102814  7.4357079342e-05
2.9500      1.02694430431958   1.02687311853524  7.1185784336e-05
3.0000      1.02559719324126   1.02552904227037  6.8150970888e-05
3.0500      1.02431902517172   1.02425377862973  6.5246541989e-05
3.1000      1.02310611692499   1.02304365022829  6.2466696705e-05
3.1500      1.02195499710267   1.02189519118882  5.9805913846e-05
3.2000      1.02086239247437   1.02080513353771  5.7258936660e-05
3.2500      1.01982521536910   1.01977039461063  5.4820758468e-05
3.3000      1.01884055199011   1.01878806538091  5.2486609191e-05
3.3500      1.01790565157478   1.01785539963207  5.0251942709e-05
3.4000      1.01701791632858   1.01696980390359  4.8112424993e-05
3.4500      1.01617489206876   1.01612882814579  4.6063922966e-05
3.5000      1.01537425952002   1.01533015702598  4.4102494038e-05
3.5500      1.01461382620931   1.01457160183304  4.2224376267e-05
3.6000      1.01389151891221   1.01385109293309  4.0425979118e-05
3.6500      1.01320537660743   1.01316667273267  3.8703874760e-05
3.7000      1.01255354389997   1.01251648911008  3.7054789886e-05
3.7500      1.01193426487713   1.01189878927913  3.5475597999e-05
3.8000      1.01134587736450   1.01131191405234  3.3963312155e-05
3.8500      1.01078680755201   1.01075429247390  3.2515078114e-05
3.9000      1.01025556496288   1.01022443679500  3.1128167883e-05
3.9500      1.00975073774015   1.00972093776653  2.9799973625e-05
4.0000      1.00927098822824   1.00924246022634  2.8528001901e-05
4.0500      1.00881504882818   1.00878773895994  2.7309868233e-05
4.1000      1.00838171810745   1.00835557481549  2.6143291964e-05
4.1500      1.00796985714665   1.00794483105526  2.5026091397e-05
4.2000      1.00757838610658   1.00755442992739  2.3956179189e-05
4.2500      1.00720628100084   1.00718334944285  2.2931557993e-05
4.3000      1.00685257066004   1.00683062034371  2.1950316332e-05
4.3500      1.00651633387484   1.00649532325016  2.1010624677e-05
4.4000      1.00619669670599   1.00617658597426  2.0110731737e-05
4.4500      1.00589282995060   1.00587358098967  1.9248960934e-05
4.5000      1.00560394675427   1.00558552304722  1.8423707053e-05
4.5500      1.00532930036001   1.00531166692694  1.7633433063e-05
4.6000      1.00506818198509   1.00505130531799  1.6876667095e-05
4.6500      1.00481991881788   1.00480376681831  1.6151999568e-05
4.7000      1.00458387212713   1.00456841404668  1.5458080451e-05
4.7500      1.00435943547680   1.00434464186013  1.4793616665e-05
4.8000      1.00414603303991   1.00413187567031  1.4157369600e-05
4.8500      1.00394311800558   1.00392956985282  1.3548152756e-05
4.9000      1.00375017107333   1.00373720624384  1.2964829492e-05
4.9500      1.00356669902980   1.00355429271892  1.2406310882e-05
5.0000      1.00339223340270   1.00338036184903  1.1871553666e-05
###  max_n |e_n|=6.4334177177e-04